Height (m),Area of catchment above that height (%),Rainfall (%),diff
0.0,100.0,100.0,0.0
50.0,96.71,97.7,-0.99
100.0,86.9,90.68,-3.78
150.0,76.95,83.18,-6.23
200.0,65.17,73.59,-8.42
250.0,51.66,61.61,-9.95
300.0,37.24,47.72,-10.48
350.0,25.23,34.63,-9.4
400.0,16.51,24.11,-7.6
450.0,9.97,15.24,-5.27
500.0,5.72,9.22,-3.5
550.0,3.11,5.24,-2.13
600.0,1.88,3.44,-1.56
650.0,1.02,2.04,-1.02
700.0,0.61,1.25,-0.64
750.0,0.23,0.52,-0.29
800.0,0.05,0.12,-0.07
