Height (m),Area of catchment above that height (%),Rainfall (%),diff
0.0,100.0,100.0,0.0
50.0,96.71,98.67,-1.96
100.0,86.9,94.03,-7.13
150.0,76.95,88.05,-11.1
200.0,65.17,79.12,-13.95
250.0,51.66,66.55,-14.89
300.0,37.24,51.24,-14.0
350.0,25.23,37.18,-11.95
400.0,16.51,25.89,-9.38
450.0,9.97,16.62,-6.65
500.0,5.72,10.25,-4.53
550.0,3.11,5.85,-2.74
600.0,1.88,3.63,-1.75
650.0,1.02,2.01,-0.99
700.0,0.61,1.26,-0.65
750.0,0.23,0.44,-0.21
800.0,0.05,0.08,-0.03
